Time (day), Net assimilation rate (mol.m-1.day-1), Elapsed assimilation rate (mol.m-2), Canopy conductance (mol.m-2.day-1), Evapo/Transpiration (mol.m-2.day-1), Cumulative evapo/transpiration (mol.m-2), leaf area index (m2.m-2),Air temperature (oC), Daily mean temperature (oC), Daily highest temperature (oC), Daily lowest temperature (oC), Elapsed thermal time (days), Elapased thermal time (hours), Relative Humidity, Leaf biomass (g.m-2), Stem biomass (g.m-2), Standing dead (g.m-2), Surface litter dead (g.m-2), Seed (g.m-2), Pod (g.m-2), Structual root (g.m-2), Fine root (g.m-2), Storage (g.m-2), Root dead material (g.m-2)
100.0,2.056744363368599E-4,2.056744363368599E-4,0.0,0.0,0.0,1.0E-4,1.248136143611982,4.9371565060883,9.587064907711847,0.28724810446475324,0.0,0.0,0.7,0.0,0.0,0.0,0.0,1.0,0.0,0.0,0.0,0.0,0.0
101.0,2.0721627317113532E-4,4.1289070950799523E-4,0.0,0.0,0.0,1.0E-4,1.4403564698186129,5.180955074614533,9.895876427845074,0.46603372138399113,0.0,0.0,0.7,0.0,0.0,0.0,0.0,1.0,0.0,0.0,0.0,0.0,0.0
102.0,2.087373955422891E-4,6.216281050502844E-4,0.0,0.0,0.0,1.0E-4,1.633702676835299,5.426181630155665,10.20649673153051,0.6458665287808207,0.0,0.0,0.7,0.0,0.0,0.0,0.0,1.0,0.0,0.0,0.0,0.0,0.0
103.0,2.102397338752858E-4,8.318678389255702E-4,0.0,0.0,0.0,1.0E-4,1.828117472008148,5.672763506790865,10.51883377526843,0.8266932383133012,0.0,0.0,0.7,0.0,0.0,0.0,0.0,1.0,0.0,0.0,0.0,0.0,0.0
104.0,2.1172485830583837E-4,0.0010435926972314085,0.0,0.0,0.0,1.0E-4,2.0235432460375375,5.920627636988417,10.832795006851995,1.008460267124839,0.0,0.0,0.7,0.0,0.0,0.0,0.0,1.0,0.0,0.0,0.0,0.0,0.0
105.0,2.1319373617590995E-4,0.0012567864334073185,0.0,0.0,0.0,1.0E-4,2.2199220900489873,6.169700573257195,11.148287392792447,1.1911137537219432,0.0,0.0,0.7,0.0,0.0,0.0,0.0,1.0,0.0,0.0,0.0,0.0,0.0
106.0,2.1464675263679138E-4,0.0014714331860441099,0.0,0.0,0.0,1.0E-4,2.417195812752813,6.419908509910748,11.465217445886948,1.3745995739345478,0.0,0.0,0.7,0.0,0.0,0.0,0.0,1.0,0.0,0.0,0.0,0.0,0.0
107.0,2.160838358648293E-4,0.0016875170219089392,0.0,0.0,0.0,1.0E-4,2.6153059576874647,6.671177304937517,11.783491252920856,1.5588633569541788,0.0,0.0,0.7,0.0,0.0,0.0,0.0,1.0,0.0,0.0,0.0,0.0,0.0
108.0,2.1750459709637008E-4,0.0019050216190053093,0.0,0.0,0.0,1.0E-4,2.8141938205414307,6.923432501970712,12.103014502496237,1.7438505014451886,0.0,0.0,0.7,0.0,0.0,0.0,0.0,1.0,0.0,0.0,0.0,0.0,0.0
109.0,2.1890844992306937E-4,0.0021239300689283786,0.0,0.0,0.0,1.0E-4,3.013800466548595,7.176599352351337,12.42369251297836,1.9295061917243137,0.0,0.0,0.7,0.0,0.0,0.0,0.0,1.0,0.0,0.0,0.0,0.0,0.0
110.0,2.2029470060909532E-4,0.002344224769537474,0.0,0.0,0.0,1.0E-4,3.2140667479518807,7.430602837277837,12.745430260551927,2.115775414003747,0.0,0.0,0.7,0.0,0.0,0.0,0.0,1.0,0.0,0.0,0.0,0.0,0.0
111.0,2.2166261198020224E-4,0.002565887381517676,0.0,0.0,0.0,1.0E-4,3.4149333215300075,7.685367690035783,13.068132407378659,2.302602972692907,0.0,0.0,0.7,0.0,0.0,0.0,0.0,1.0,0.0,0.0,0.0,0.0,0.0
112.0,2.2301144645384206E-4,0.0027888988279715183,0.0,0.0,0.0,1.0E-4,3.616340666182169,7.940818418301028,13.391703329847969,2.4899335067540864,0.0,0.0,0.7,0.0,0.0,0.0,0.0,1.0,0.0,0.0,0.0,0.0,0.0
113.0,2.2434049372800055E-4,0.003013239321699519,0.0,0.0,0.0,1.0E-4,3.8182291005654205,8.196879326509709,13.716047146912299,2.67771150610712,0.0,0.0,0.7,0.0,0.0,0.0,0.0,1.0,0.0,0.0,0.0,0.0,0.0
114.0,2.2564908764190854E-4,0.0032388884093414276,0.0,0.0,0.0,1.0E-4,4.0205388007795415,8.453474538288477,14.041067748498737,2.865881328078216,0.0,0.0,0.7,0.0,0.0,0.0,0.0,1.0,0.0,0.0,0.0,0.0,0.0
115.0,2.2693661560413647E-4,0.003465825024945564,0.0,0.0,0.0,1.0E-4,4.223209818094162,8.710528018938303,14.366668823988517,3.0543872138880896,0.0,0.0,0.7,0.0,0.0,0.0,0.0,1.0,0.0,0.0,0.0,0.0,0.0
116.0,2.282025230319494E-4,0.003694027547977513,0.0,0.0,0.0,1.0E-4,4.426182096712847,8.967963597965202,14.692753890755922,3.2431733051744818,0.0,0.0,0.7,0.0,0.0,0.0,0.0,1.0,0.0,0.0,0.0,0.0,0.0
117.0,2.2944631451578607E-4,0.003923473862493299,0.0,0.0,0.0,1.0E-4,4.629395491568945,9.225704991651194,15.019226322758179,3.432183660544209,0.0,0.0,0.7,0.0,0.0,0.0,0.0,1.0,0.0,0.0,0.0,0.0,0.0
118.0,2.305854422911694E-4,0.004154059304784468,0.0,0.0,0.0,1.0E-4,4.832789786147856,9.483675825658814,15.34598937916783,3.6213622721497973,0.0,0.0,0.7,0.0,0.0,0.0,0.0,1.0,0.0,0.0,0.0,0.0,0.0
119.0,2.3168135574111985E-4,0.004385740660525588,0.0,0.0,0.0,1.0E-4,5.036304710330486,9.74179965766248,15.672946233039141,3.8106530822858184,0.0,0.0,0.7,0.0,0.0,0.0,0.0,1.0,0.0,0.0,0.0,0.0,0.0
120.0,2.3275705081416377E-4,0.004618497711339752,0.0,0.0,0.0,0.004917025199754149,5.23987995825259,10.0,16.0,4.0,0.0,0.0,0.7,0.24585125998770746,0.05764427079997438,0.0,0.0,0.0,0.0,0.25619675911099726,0.0061462814996926865,0.0,0.0
121.0,0.008833293454666814,0.013451791166006566,0.0,0.011188034609445821,0.011188034609445821,0.01269187505981872,5.443455206174694,10.25820034233752,16.32705376696086,4.1893469177141816,7.066404005684459,169.593696136427,0.7,0.634593752990936,0.26019472110300806,0.0,0.0,0.0,0.0,0.4182371193534242,0.04502053080001555,0.0,0.0
122.0,0.024922264035727094,0.03837405520173366,0.0,0.011188195004533807,0.02237622961397963,0.023432150526430967,5.6469701303573245,10.516324174341186,16.654010620832167,4.378637727850203,14.283842855018738,342.8122285204497,0.7,1.1716075263215484,0.5400004628595272,0.0,0.0,0.0,0.0,0.6420817127586395,0.0987219081330768,0.0,0.0
123.0,0.0470319849439921,0.08540604014572575,0.0,0.011188354872819238,0.03356458448679887,0.038247552731588294,5.850364424936235,10.774295008348806,16.98077367724182,4.567816339455791,21.652227024969527,519.6534485992686,0.7,1.9123776365794147,0.9259714387736848,0.0,0.0,0.0,0.0,0.9508584934899655,0.17279891915886345,0.0,0.0
124.0,0.07721444197572414,0.1626204821214499,0.0,0.011188514169627654,0.04475309865642652,0.05862597476401565,6.053577819792333,11.032036402034798,17.307246109244076,4.756826694825518,30.022502028611548,720.5400486866772,0.7,2.9312987382007822,1.456870251409938,0.0,0.0,0.0,0.0,1.3755775435989683,0.2746910293210002,0.0,0.0
125.0,0.11803357412560847,0.28065405624705836,0.0,0.011188672850816102,0.055941771507242624,0.08652784181147508,6.256550098411019,11.289471981061697,17.63333117601148,4.94561278611191,38.56411541341606,925.5387699219855,0.7,4.326392090573754,2.1837699133297566,0.0,0.0,0.0,0.0,1.9570972731348228,0.41420036455829734,0.0,0.0
126.0,0.17253146903615987,0.4531855252832182,0.0,0.011188830872780177,0.0671306023800228,0.12447420363853105,6.459221115725639,11.546525461711523,17.958932251501263,5.134118671921784,47.27681287064446,1134.6435088954672,0.7,6.223710181926553,3.172348833022001,0.0,0.0,0.0,0.0,2.7479604088886185,0.6039321736935772,0.0,0.0
127.0,0.2440390382823534,0.6972245635655716,0.0,0.011188988192460662,0.07831959057248347,0.17559990423842123,6.66153081593976,11.803120673490291,18.2839528530877,5.32228849389288,56.160289395655205,1347.8469454957249,0.7,8.779995211921062,4.504275991095744,0.0,0.0,0.0,0.0,3.8135021353476124,0.8595606766930282,0.0,0.0
128.0,0.3357393503385606,1.0329639139041322,0.0,0.01118914476734953,0.089508735339833,0.2436262269598309,6.863419250323012,12.059181581698972,18.60829667015203,5.510066493245914,65.21418937828324,1565.1405450787977,0.7,12.181311347991546,6.276498290905735,0.0,0.0,0.0,0.0,5.231279975195605,1.1996922903000766,0.0,0.0
129.0,0.44993684252008936,1.4829007564242216,0.0,0.012762461837828417,0.10227119717766142,0.33269879496321864,7.064826594975173,12.314632309964217,18.93186759262134,5.697397027307093,74.43810670821497,1786.5145609971594,0.7,16.63493974816093,8.597017539953193,0.0,0.0,0.0,0.0,7.0876953744335704,1.6450551303170151,0.0,0.0
130.0,0.5876130008963703,2.070513757320592,0.0,0.012762649321601536,0.11503384649926296,0.4471435690949919,7.2656931685533,12.569397162722163,19.254569739448073,5.884224585996253,84.66584259325319,2031.9802222380765,0.7,22.357178454749597,11.578533704565938,0.0,0.0,0.0,0.0,9.472908306123767,2.217279000975882,0.0,0.0
131.0,0.7460128952205007,2.816526652541093,0.0,0.012762835754351826,0.1277966822536148,0.5907778681829461,7.465959449956586,12.823400647648663,19.57630748702164,6.070493808275686,95.08163949287531,2281.9593478290076,0.7,29.538893409147306,15.32049560516322,0.0,0.0,0.0,0.0,12.466477826601592,2.935450496415653,0.0,0.0
132.0,0.9190622570862667,3.7355889096273596,0.0,0.012763021087373231,0.14055970334098802,0.7662983995910956,7.66556609596375,13.076567498029288,19.896985497503763,6.256149498554811,105.68487797329058,2536.437071358974,0.7,38.31491997955478,19.893157883409863,0.0,0.0,0.0,0.0,16.124607649198904,3.8130531534564005,0.0,0.0
133.0,1.097451734247139,4.833040643874499,0.0,0.012763205272654314,0.15332290861364234,0.9746849193307816,7.864453958817716,13.328822695062483,20.216508747079146,6.441136643045821,116.47488305772254,2795.397193385341,0.7,48.73424596653908,25.322045150694642,0.0,0.0,0.0,0.0,20.467717463026727,4.85498575215483,0.0,0.0
134.0,1.2701856450141882,6.1032262888886875,0.0,0.012763388262882234,0.16608629687652457,1.2148895562187034,8.062564103752369,13.580091490089252,20.53478255411305,6.625400426065452,127.45092442641918,3058.82218623406,0.7,60.744477810935166,31.579858258627915,0.0,0.0,0.0,0.0,25.473967949373346,6.056008936594439,0.0,0.0
135.0,1.4268542137226408,7.530080502611328,0.0,0.012763570011446219,0.17884986688797078,1.4839451577368117,8.259837826456193,13.830299426742805,20.851712607207553,6.808886246278057,138.6122166330625,3326.6931991935,0.7,74.19725788684059,38.589296926244046,0.0,0.0,0.0,0.0,31.08151888346625,7.401286944184982,0.0,0.0
136.0,1.5596735994293685,9.089754102040697,0.0,0.012763750472440546,0.19161361736041133,1.7774497769633646,8.456216670467644,14.079372363011583,21.167204993148005,6.991539732875161,149.95791933751318,3598.990064100316,0.7,88.87248884816823,46.235681597377095,0.0,0.0,0.0,0.0,37.19862662037269,8.868810040317745,0.0,0.0
137.0,1.6644829888690142,10.754237090909712,0.0,0.012763929600667027,0.20437754696107835,2.0902349374788463,8.651642444497032,14.327236493209135,21.48116622473157,7.173306761686699,161.48713755482146,3875.691301315715,0.7,104.51174687394231,54.384363083297295,0.0,0.0,0.0,0.0,43.717571809108854,10.432735842895154,0.0,0.0
138.0,1.7405490195834665,12.494786110493179,0.0,0.012764107351637072,0.21714165431271543,2.4169977334732504,8.846057239669882,14.573818369844336,21.793503268469493,7.35413347121918,174.04715130992764,4177.131631438264,0.7,120.84988667366251,62.897190039726155,0.0,0.0,0.0,0.0,50.52783337425194,12.066549822867174,0.0,0.0
139.0,1.7896214131998127,14.284407523692991,0.0,0.014516658895950383,0.2316583132086658,2.786334799309563,9.039403446686567,14.819044925385466,22.104123572154926,7.533966278616008,186.8058458641524,4483.340300739657,0.7,139.31673996547815,73.39388695515818,0.0,0.0,0.0,0.0,50.52783337425194,17.102964356998708,0.0,0.0
140.0,1.8601569802107418,16.144564503903734,0.0,0.014516869144020946,0.24617518235268676,3.169808149297215,9.2316237728932,15.0628434939117,22.41293509228815,7.712751895535247,199.76206427264273,4794.289542543425,0.7,158.49040746486077,84.29234232911654,0.0,0.0,0.0,0.0,50.52783337425194,22.33214640228487,0.0,0.0
141.0,1.9077362170472763,18.05230072095101,0.0,0.014517077581151464,0.2606922599338382,3.5627550967916686,9.422661259258664,15.305141832645575,22.71984632135106,7.890437343940088,212.91459105996472,5109.950185439153,0.7,178.13775483958344,95.46004087124301,0.0,0.0,0.0,0.0,50.52783337425194,27.690513868118323,0.0,0.0
142.0,1.9350258730658205,19.98732659401683,0.0,0.01451728415726953,0.27520954409110776,3.9610559940559433,9.612459297252824,15.545868143360096,23.024766314922786,8.066969971797404,226.2621525802751,5430.2916619266025,0.7,198.05279970279716,106.77990065910582,0.0,0.0,0.0,0.0,50.52783337425194,33.12188973990388,0.0,0.0
143.0,1.945206048238229,21.93253264225506,0.0,0.014517488823160216,0.289727032914268,4.361238103449256,9.800961645620854,15.784951093654108,23.327604718628535,8.24229746867968,239.80341739473008,5755.282017473522,0.7,218.06190517246284,118.15322519605209,0.0,0.0,0.0,0.0,54.318941553234026,34.9408993280553,0.0,0.0
144.0,1.9393563139109693,23.871888956166032,0.0,0.014517691530465584,0.30424472444473355,4.7601722362873495,9.988112447048703,16.022319838089594,23.628271794913488,8.416367881265701,253.53699666601926,6084.887919984462,0.7,238.00861181436747,129.49108177467673,0.0,0.0,0.0,0.0,58.09822707944224,36.75423629550118,0.0,0.0
145.0,1.9213161514744472,25.79320510764048,0.0,0.014514608269387727,0.31875933271412127,5.119457505880194,10.17385624471488,16.25790403918475,23.926678449634018,8.589129628735485,268.3092659236345,6439.422382167228,0.7,255.97287529400973,142.59522555035377,0.0,0.0,0.0,0.0,61.84226815820711,38.55066264346541,0.0,0.0
146.0,1.8919796244771012,27.68518473211758,0.0,0.014514810454418945,0.3332741431685402,5.473278252168428,10.358137998723443,16.491633888256466,24.22273625845819,8.76053151805474,283.2862582439541,6798.870197854898,0.7,273.6639126084214,155.5000627996867,0.0,0.0,0.0,0.0,65.52936451515937,40.31976637490658,0.0,0.0
147.0,1.8556392110140882,29.54082394313167,0.0,0.014515010503659895,0.3477891536722001,5.820343879080217,10.540903102413564,16.72344012610616,24.5163574930678,8.930522759144516,298.46628874341525,7163.190929841966,0.7,291.01719395401085,168.15852185591666,0.0,0.0,0.0,0.0,69.14606710265365,42.055094509465526,0.0,0.0
148.0,1.8134685014026166,31.354292444534288,0.0,0.014515208371364252,0.36230436204356437,6.078163623842625,10.72209739854062,16.953254063542765,24.80745514715417,9.099052979931361,313.84761237386084,7532.342696972661,0.7,303.9081811921312,175.228755580317,0.0,0.0,0.0,0.0,81.51897612035422,43.751277040797156,3.3359794239668283,0.0
149.0,1.6796557626649626,33.03394820719925,0.0,0.01451540401264931,0.3768197660562137,6.3171918754468415,10.901667195324173,17.181007601736827,25.09594296219998,9.266072241273672,329.42842443963474,7906.282186551234,0.7,315.85959377234207,181.78366706366356,0.0,0.0,0.0,0.0,92.9900712162107,45.32383132766701,3.092832668162278,0.0
150.0,1.5531970455493027,34.587145252748556,0.0,0.016462557397746606,0.3932823234539603,6.538462078762631,11.079559282358009,17.406633252399658,25.381735453039568,9.431531051759748,346.0434110956474,8305.041866295538,0.7,326.92310393813153,187.85159663643506,0.0,0.0,0.0,0.0,103.60894796856083,46.77955634948141,2.8630578549314447,0.0
151.0,1.4341960108624379,36.02134126361099,0.0,0.01646278598150075,0.40974510943546105,6.743022046393458,11.25572094637751,17.630064157781568,25.664747933189986,9.59538038237315,362.8681320687715,8708.835169650516,0.7,337.1511023196729,193.46127863786026,0.0,0.0,0.0,0.0,113.42589147105491,48.12534561021054,2.646840891152961,0.0
152.0,1.322609969465556,37.343951233076545,0.0,0.01646301174692675,0.4262081211823878,6.931913447687224,11.430099986879746,17.851234110483254,25.944896539945454,9.757571681021053,379.9004650054965,9117.611160131917,0.7,346.5956723843612,198.64127893964923,0.0,0.0,0.0,0.0,122.4908919991856,49.36805219766953,2.444102288057759,0.0
153.0,1.218289863026339,38.56224109610289,0.0,0.016463234644409748,0.44267135582679756,7.106156903610084,11.602644731591607,18.070077573074492,26.222098259227693,9.918056886921294,397.13822603240646,9531.317424777755,0.7,355.3078451805042,203.41958620024,0.0,0.0,0.0,0.0,130.85292970521945,50.51439072347782,2.254569696573093,0.0
154.0,1.1210104269238599,39.68325152302675,0.0,0.016463454625347585,0.45913481045214516,7.266741310795793,11.773304051781425,18.286529697514297,26.496270950184776,10.076788444843817,415.4247557299208,9970.194137518098,0.7,363.33706553978965,207.82331909642886,0.0,0.0,0.0,0.0,138.55946227354997,51.57086708654169,2.0778326294408225,0.0
155.0,1.0304931867570297,40.713744709783775,0.0,0.01646367164214579,0.47559848209429095,7.41461638985622,11.942027377409483,18.50052634436676,26.76733336953123,10.233719319202292,433.9252820742875,10414.2067697829,0.7,370.730819492811,211.8785219744508,0.0,0.0,0.0,0.0,145.65606731008833,52.54372944878134,1.913384180554741,0.0
156.0,0.9464241105342912,41.66016882031806,0.0,0.016463885648212228,0.49206236774250317,7.550687708530322,12.108764712113059,18.71200410180701,27.035205195622215,10.388803007991807,452.6372861760945,10863.294868226269,0.7,377.5343854265161,215.61002836896623,0.0,0.0,0.0,0.0,152.18620350049036,53.43893549268991,1.760653047372912,0.0
157.0,0.8684672014080146,42.52863602172608,0.0,0.01646409659795149,0.5085264643404547,7.675813610418647,12.273466648021392,18.920900304411447,27.2998070522545,10.541993556568393,471.5581864805059,11317.396475532143,0.7,383.79068052093237,219.04137677923677,0.0,0.0,0.0,0.0,158.19106321846382,54.26213221563942,1.6190281876565118,0.0
158.0,0.7962749600187649,43.32491098174484,0.0,0.016464304446759098,0.5249907687872137,7.7908036103326515,12.436084380396318,19.127153051726893,27.561060532187398,10.693245571266388,490.68533953223283,11776.448148773588,0.7,389.5401805166326,222.19476666452272,0.0,0.0,0.0,0.0,163.70949551771423,55.01864537296839,1.4878777962819434,0.0
159.0,0.7294964041832919,44.05440738592814,0.0,0.016464509151015383,0.5414552779382291,7.89641791373131,12.596569722094147,19.330701226613012,27.818888220376483,10.842514232849542,510.01604075884586,12240.3849782123,0.7,394.8208956865655,225.09104526551343,0.0,0.0,0.0,0.0,168.77798306944797,55.71347631638062,1.3665638500232042,0.0
160.0,0.6677831658715685,44.722190551799706,0.0,0.0164647106680793,0.5579199886063084,7.993367790632782,12.754875117844584,19.531484513352662,28.073213716913372,10.989755309791953,529.5475252721985,12709.140606532765,0.7,399.6683895316391,227.74971785816894,0.0,0.0,0.0,0.0,173.4306601065951,56.35130445389031,1.254453163769426,0.0
161.0,0.6107940658246762,45.33298461762438,0.0,0.016464908956281884,0.5743848975625903,8.08231659053369,12.91095365834235,19.72944341552472,28.323961659664647,11.134925171384793,549.2769686877233,13182.64724850536,0.7,404.11582952668454,230.1889755860202,0.0,0.0,0.0,0.0,177.6993611303348,56.9364939269226,1.1509256846461673,0.0
162.0,0.5581984788324328,45.891183096456814,0.0,0.018654215162179296,0.5930391127247695,8.163881228766371,13.064759094147455,19.924519273634175,28.571057746603287,11.277980800665063,569.2014879613574,13660.835711072577,0.7,408.19406143831856,232.425736220791,0.0,0.0,0.0,0.0,181.61369224118374,57.47310338897971,1.0553805920422104,0.0
163.0,0.5096787374420524,46.400861833898865,0.0,0.018654445534428937,0.6116935582591985,8.23863400947197,13.216245849389868,20.11665428249418,28.814428757825965,11.4188798071624,589.3181422438516,14143.63541385244,0.7,411.9317004735984,234.4756941540923,0.0,0.0,0.0,0.0,185.20111862446103,57.96489799888496,0.9672406531469735,0.0
164.0,0.4649317720970316,46.8657936059959,0.0,0.018654671883665645,0.6303482301428641,8.290887940819795,13.365369035274668,20.305791508355007,29.054002577249676,11.557580439460338,609.6239337522067,14630.97441005296,0.7,414.5443970409898,236.35337668440891,0.0,0.0,1.7319228065122616,0.0,186.13995988961932,58.05499098396742,0.0,0.0
165.0,0.4524327760692439,47.31822638206514,0.0,0.018654894164391485,0.6490031243072556,8.341803557474691,13.512084463383525,20.491874905774708,29.289708213981296,11.69404159756812,630.1158086579813,15122.779407791553,0.7,417.09017787373455,238.1829684767816,0.0,0.0,3.419488036872926,0.0,187.05475578580567,58.142776529924134,0.0,0.0
166.0,0.4398426776108746,47.75806905967602,0.0,0.018655112332235387,0.667658236639491,8.39137115758835,13.656348658768717,20.67484933422662,29.52147582335372,11.828222845099523,650.790657992208,15618.975791812993,0.7,419.56855787941754,239.96412090689455,0.0,0.0,5.062374129585943,0.0,187.94533200086212,58.22823790943045,0.0,0.0
